depth,tempdepth,temp,EdZTilt,EdZRoll,EdZPitch,Ed0Tilt,Ed0Roll,Ed0Pitch
0.72551,1.07851,21.5097,3.779571,3.777001,0.1397877,-2.935836,-1.817544,2.307119
0.730001,1.083001,21.50048,3.717427,3.706957,0.2795763,-3.033952,-1.887474,2.377071
0.734937,1.087937,21.50483,3.738928,3.706957,0.4892626,-3.132104,-1.957407,2.447027
0.740046,1.093046,21.48846,3.785417,3.706957,0.7688549,-3.132104,-1.957407,2.447027
0.745276,1.098276,21.50487,3.833247,3.706957,0.9785607,-3.221157,-2.097282,2.447027
0.750007,1.103007,21.51227,3.913535,3.706957,1.25819,-3.458518,-2.447027,2.447027
0.754792,1.107792,21.50542,3.960442,3.706957,1.398015,-3.459938,-2.516986,2.377071
0.760532,1.113532,21.509,3.974701,3.63692,1.607768,-3.562794,-2.656917,2.377071
0.765806,1.118806,21.51001,3.939902,3.566888,1.677691,-3.721617,-2.866842,2.377071
0.770956,1.123956,21.50517,3.939902,3.566888,1.677691,-3.579316,-2.796863,2.23717
0.77629,1.12929,21.51012,3.907309,3.496861,1.747616,-3.70413,-3.006814,2.167225
0.782806,1.135806,21.50939,3.847095,3.496861,1.607768,-3.9556,-3.356823,2.097282
0.788177,1.141177,21.50804,3.583863,3.356823,1.25819,-4.015083,-3.426839,2.097282
0.793396,1.146396,21.50879,3.277482,3.216805,0.6290568,-4.015083,-3.426839,2.097282
0.799205,1.152205,21.49816,3.079968,3.076806,-0.1397877,-4.074903,-3.496861,2.097282
0.804419,1.157419,21.50768,3.035811,3.006814,-0.4193665,-4.039529,-3.496861,2.027343
0.810432,1.163432,21.5112,3.058176,3.006814,-0.5591593,-4.100198,-3.566888,2.027343
0.815111,1.168111,21.50071,3.073714,2.936826,-0.9086576,-3.919134,-3.356823,2.027343
0.819858,1.172858,21.50951,3.129944,2.866842,-1.25819,-3.800094,-3.216805,2.027343
0.824985,1.177985,21.5108,3.346763,2.936826,-1.607768,-3.741122,-3.146803,2.027343
0.830669,1.183669,21.50131,3.392822,2.866842,-1.817544,-3.509304,-2.866842,2.027343
0.834387,1.187387,21.50546,3.509304,2.866842,-2.027343,-3.298436,-2.656917,1.957407
0.839804,1.192804,21.50064,3.509304,2.866842,-2.027343,-3.298436,-2.656917,1.957407
0.844617,1.197617,21.51389,3.566608,2.936826,-2.027343,-3.02423,-2.307119,1.957407
0.850135,1.203135,21.49833,3.566608,2.936826,-2.027343,-2.816944,-2.027343,1.957407
0.854911,1.207911,21.50368,3.70413,3.006814,-2.167225,-2.768888,-1.887474,2.027343
0.859284,1.212284,21.51497,3.62436,3.006814,-2.027343,-2.675666,-1.747616,2.027343
0.863676,1.216676,21.51722,3.632159,3.146803,-1.817544,-2.586644,-1.607768,2.027343
0.868511,1.221511,21.51537,3.659124,3.216805,-1.747616,-2.488522,-1.537848,1.957407
0.87306,1.22606,21.51795,3.763404,3.216805,-1.957407,-2.502268,-1.46793,2.027343
0.878297,1.231297,21.52389,3.763404,3.216805,-1.957407,-2.519831,-1.398015,2.097282
0.88311,1.23611,21.50708,3.632159,3.146803,-1.817544,-2.385482,-1.25819,2.027343
0.886615,1.239615,21.51064,3.626386,3.216805,-1.677691,-2.423021,-1.328101,2.027343
0.890831,1.243831,21.51381,3.564112,3.216805,-1.537848,-2.445999,-1.46793,1.957407
0.895126,1.248126,21.51688,3.501122,3.146803,-1.537848,-2.404756,-1.398015,1.957407
0.898382,1.251382,21.51241,3.5483,3.006814,-1.887474,-2.307349,-1.328101,1.887474
0.902695,1.255695,21.51783,3.536157,2.796863,-2.167225,-2.210064,-1.25819,1.817544
0.906944,1.259944,21.51219,3.481181,2.726888,-2.167225,-2.380183,-1.537848,1.817544
0.910209,1.263209,21.51289,3.418136,2.58695,-2.23717,-2.380183,-1.537848,1.817544
0.913789,1.266789,21.51464,3.657362,2.516986,-2.656917,-2.472719,-1.677691,1.817544
0.917142,1.270142,21.50431,3.885296,2.377071,-3.076806,-2.520622,-1.817544,1.747616
0.920993,1.273993,21.50169,4.186224,2.307119,-3.496861,-2.374,-1.607768,1.747616
0.924207,1.277207,21.51413,4.446878,2.23717,-3.84705,-2.520622,-1.747616,1.817544
0.926372,1.279372,21.51755,4.629546,2.23717,-4.057231,-2.774196,-2.097282,1.817544
0.929814,1.282814,21.52611,4.65823,2.167225,-4.127304,-2.768888,-2.027343,1.887474
0.931837,1.284837,21.50429,4.845153,2.167225,-4.337558,-2.979541,-2.307119,1.887474
0.941239,1.294239,21.51561,4.748339,2.58695,-3.987165,-3.176174,-2.447027,2.027343
0.942625,1.295625,21.51418,4.541286,2.726888,-3.63692,-3.122686,-2.377071,2.027343
0.944084,1.297084,21.51002,4.300316,2.936826,-3.146803,-3.168435,-2.377071,2.097282
0.945899,1.298899,21.52188,3.963423,3.006814,-2.58695,-3.06506,-2.23717,2.097282
0.948254,1.301254,21.51234,3.70384,3.146803,-1.957407,-3.113239,-2.23717,2.167225
0.950416,1.303416,21.51469,3.608886,3.356823,-1.328101,-3.06506,-2.097282,2.23717
0.952596,1.305596,21.51879,3.583863,3.356823,-1.25819,-2.971295,-1.957407,2.23717
0.955784,1.308784,21.51628,3.516037,3.356823,-1.048466,-2.935836,-1.817544,2.307119
0.958022,1.311022,21.50917,3.443356,3.356823,-0.7688549,-2.935836,-1.817544,2.307119
0.960719,1.313719,21.52537,3.382798,3.356823,-0.4193665,-2.837762,-1.747616,2.23717
0.962693,1.315693,21.51608,3.39213,3.356823,-0.4892626,-2.935836,-1.817544,2.307119
0.964978,1.317978,21.5165,3.346208,3.286811,-0.6290568,-2.881265,-1.817544,2.23717
0.967844,1.320844,21.51903,3.39169,3.286811,-0.8387555,-2.697565,-1.607768,2.167225
0.969839,1.322839,21.51312,3.338878,3.146803,-1.118372,-2.739735,-1.677691,2.167225
0.972737,1.325737,21.50619,3.350197,3.076806,-1.328101,-2.684812,-1.677691,2.097282
0.975054,1.328054,21.52273,3.407827,3.076806,-1.46793,-2.768888,-1.887474,2.027343
0.979017,1.332017,21.512,3.375979,3.006814,-1.537848,-2.718173,-1.887474,1.957407
0.982443,1.335443,21.52209,3.252058,2.866842,-1.537848,-2.718173,-1.887474,1.957407
0.985362,1.338362,21.52361,3.219693,2.866842,-1.46793,-2.767116,-1.957407,1.957407
0.98902,1.34202,21.50622,3.129944,2.866842,-1.25819,-2.820424,-2.097282,1.887474
0.993232,1.346232,21.52243,2.97383,2.726888,-1.18828,-2.721778,-2.027343,1.817544
0.996303,1.349303,21.52695,2.938999,2.656917,-1.25819,-2.827372,-2.167225,1.817544
1.000136,1.353136,21.50987,2.909841,2.656917,-1.18828,-2.881265,-2.23717,1.817544
1.004223,1.357223,21.51847,2.882079,2.656917,-1.118372,-2.991047,-2.377071,1.817544
1.00849,1.36149,21.51043,2.882079,2.656917,-1.118372,-2.949174,-2.377071,1.747616
1.012111,1.365111,21.52025,2.909841,2.656917,-1.18828,-2.949174,-2.377071,1.747616
1.015653,1.368653,21.51367,3.001343,2.656917,-1.398015,-3.062929,-2.516986,1.747616
1.019726,1.372726,21.51081,3.06878,2.656917,-1.537848,-3.062929,-2.516986,1.747616
1.023763,1.376763,21.51031,3.164339,2.726888,-1.607768,-2.991047,-2.377071,1.817544
1.026774,1.379774,21.51468,3.190598,2.796863,-1.537848,-3.033952,-2.377071,1.887474
1.030053,1.383053,21.52162,3.252058,2.866842,-1.537848,-3.186976,-2.516986,1.957407
1.033632,1.386632,21.52676,3.313858,2.936826,-1.537848,-3.077845,-2.377071,1.957407
1.036454,1.389454,21.51493,3.438406,3.076806,-1.537848,-3.02423,-2.307119,1.957407
1.040153,1.393153,21.5192,3.501122,3.146803,-1.537848,-3.06506,-2.23717,2.097282
1.043871,1.396871,21.51313,3.534631,3.216805,-1.46793,-2.964682,-2.097282,2.097282
1.046877,1.399877,21.52376,3.494131,3.286811,-1.18828,-2.919076,-1.957407,2.167225
1.050572,1.403572,21.50707,3.495921,3.356823,-0.9785607,-2.919076,-1.957407,2.167225
1.05367,1.40667,21.50879,3.565691,3.496861,-0.6989553,-2.919076,-1.957407,2.167225
1.057374,1.410374,21.51158,3.600116,3.566888,-0.4892626,-2.966337,-2.027343,2.167225
1.06094,1.41394,21.52479,3.577772,3.566888,-0.2795763,-2.87274,-1.887474,2.167225
1.065309,1.418309,21.51741,3.639591,3.63692,-0.1397877,-2.87274,-1.887474,2.167225
1.068989,1.421989,21.52523,3.566888,3.566888,0,-2.971295,-1.957407,2.23717
1.072559,1.425559,21.5078,3.49964,3.496861,0.1397877,-3.017732,-2.027343,2.23717
1.076743,1.429743,21.51633,3.452283,3.426839,0.4193665,-3.06506,-2.097282,2.23717
1.081551,1.434551,21.51883,3.552716,3.496861,0.6290568,-3.017732,-2.027343,2.23717
1.085767,1.438767,21.51031,3.527519,3.426839,0.8387555,-3.113239,-2.167225,2.23717
1.091166,1.444166,21.51847,3.582914,3.426839,1.048466,-3.113239,-2.167225,2.23717
1.095757,1.448757,21.5188,3.674056,3.426839,1.328101,-2.966337,-2.027343,2.167225
1.101793,1.454793,21.51162,3.754591,3.426839,1.537848,-2.966337,-2.027343,2.167225
1.107224,1.460224,21.51878,3.782654,3.356823,1.747616,-3.063458,-2.167225,2.167225
1.113047,1.466047,21.52354,3.910094,3.426839,1.887474,-2.964682,-2.097282,2.097282
1.118686,1.471686,21.51187,3.848967,3.356823,1.887474,-2.865901,-2.027343,2.027343
1.12481,1.47781,21.51413,3.659124,3.216805,1.747616,-2.915713,-2.097282,2.027343
1.130991,1.483991,21.52092,3.501122,3.146803,1.537848,-2.915713,-2.097282,2.027343
1.137672,1.490672,21.51974,3.323206,3.076806,1.25819,-2.867612,-2.097282,1.957407
1.143579,1.496579,21.51661,3.29486,3.146803,0.9785607,-2.718173,-1.887474,1.957407
1.149846,1.502846,21.51785,3.12701,3.076806,0.5591593,-2.816944,-2.027343,1.957407
1.155683,1.508683,21.52284,3.149894,3.146803,0.1397877,-2.816944,-2.027343,1.957407
1.162125,1.515125,21.52787,3.159148,3.146803,-0.2795763,-2.57144,-1.747616,1.887474
1.167672,1.520672,21.51933,3.253645,3.216805,-0.4892626,-2.619398,-1.817544,1.887474
1.174572,1.527572,21.52004,3.375156,3.286811,-0.7688549,-2.569533,-1.817544,1.817544
1.180827,1.533827,21.51731,3.40957,3.286811,-0.9086576,-2.470737,-1.747616,1.747616
1.187688,1.540688,21.51945,3.477089,3.356823,-0.9086576,-2.470737,-1.747616,1.747616
1.194444,1.547444,21.51482,3.497062,3.426839,-0.6989553,-2.374,-1.607768,1.747616
1.2009,1.5539,21.52596,3.600116,3.566888,-0.4892626,-2.421843,-1.677691,1.747616
1.207906,1.560906,21.52258,3.569612,3.566888,-0.1397877,-2.520622,-1.747616,1.817544
1.21505,1.56805,21.51848,3.647593,3.63692,0.2795763,-2.425885,-1.607768,1.817544
1.222634,1.575634,21.51964,3.771916,3.706957,0.6989553,-2.478657,-1.607768,1.887474
1.229806,1.582806,21.52224,3.851583,3.706957,1.048466,-2.630603,-1.677691,2.027343
1.237546,1.590546,21.51651,3.960442,3.706957,1.398015,-2.630603,-1.677691,2.027343
1.245598,1.598598,21.50709,4.126331,3.706957,1.817544,-2.675666,-1.747616,2.027343
1.254001,1.607001,21.50532,4.283936,3.777001,2.027343,-2.586644,-1.607768,2.027343
1.261778,1.614778,21.50256,4.29095,3.706957,2.167225,-2.577152,-1.677691,1.957407
1.269527,1.622527,21.51645,4.303657,3.63692,2.307119,-2.630603,-1.677691,2.027343
1.278154,1.631154,21.51268,4.207354,3.566888,2.23717,-2.816944,-1.957407,2.027343
1.287021,1.640021,21.51906,4.111159,3.496861,2.167225,-2.865901,-2.027343,2.027343
1.294941,1.647941,21.50526,4.015083,3.426839,2.097282,-2.964682,-2.097282,2.097282
1.30349,1.65649,21.5155,3.944165,3.426839,1.957407,-3.168435,-2.377071,2.097282
1.312204,1.665204,21.52114,3.782654,3.356823,1.747616,-3.116391,-2.307119,2.097282
1.32194,1.67494,21.51639,3.690858,3.356823,1.537848,-3.168435,-2.377071,2.097282
1.330497,1.683497,21.51932,3.543904,3.286811,1.328101,-3.215053,-2.377071,2.167225
1.339184,1.692184,21.51194,3.382677,3.216805,1.048466,-3.215053,-2.377071,2.167225
1.348896,1.701896,21.50993,3.274861,3.146803,0.9086576,-3.319641,-2.516986,2.167225
1.358733,1.711733,21.52562,3.154901,3.076806,0.6989553,-3.372896,-2.58695,2.167225
1.367748,1.720748,21.52075,3.195899,3.146803,0.5591593,-3.426752,-2.656917,2.167225
1.377026,1.730026,21.51993,3.18446,3.146803,0.4892626,-3.426752,-2.656917,2.167225
1.386318,1.739318,21.51847,3.253645,3.216805,0.4892626,-3.285008,-2.58695,2.027343
1.396898,1.749898,21.51972,3.322869,3.286811,0.4892626,-3.285008,-2.58695,2.027343
1.406768,1.759768,21.51745,3.322869,3.286811,0.4892626,-3.340294,-2.656917,2.027343
1.416937,1.769937,21.50946,3.382798,3.356823,0.4193665,-3.298436,-2.656917,1.957407
1.425781,1.778781,21.52024,3.382798,3.356823,0.4193665,-3.411998,-2.796863,1.957407
1.435987,1.788987,21.51175,3.39213,3.356823,0.4892626,-3.077845,-2.377071,1.957407
1.44605,1.79905,21.51609,3.471944,3.426839,0.5591593,-3.132104,-2.447027,1.957407
1.455915,1.808915,21.52184,3.552716,3.496861,0.6290568,-3.132104,-2.447027,1.957407
1.466107,1.819107,21.51515,3.565691,3.496861,0.6989553,-3.02423,-2.307119,1.957407
1.47624,1.82924,21.52508,3.565691,3.496861,0.6989553,-3.069861,-2.307119,2.027343
1.48634,1.83934,21.52477,3.648394,3.566888,0.7688549,-3.017732,-2.23717,2.027343
1.496846,1.849846,21.52695,3.663683,3.566888,0.8387555,-3.069861,-2.307119,2.027343
1.507224,1.860224,21.52161,3.612423,3.496861,0.9086576,-3.02423,-2.307119,1.957407
1.517582,1.870582,21.52434,3.698017,3.566888,0.9785607,-2.971295,-2.23717,1.957407
1.527715,1.880715,21.51844,3.649914,3.496861,1.048466,-2.971295,-2.23717,1.957407
1.538434,1.891434,21.52604,3.692296,3.496861,1.18828,-2.919076,-2.167225,1.957407
1.549148,1.902148,21.53697,3.71527,3.496861,1.25819,-2.867612,-2.097282,1.957407
1.560301,1.913301,21.51186,3.649484,3.426839,1.25819,-2.867612,-2.097282,1.957407
1.571699,1.924699,21.51732,3.583863,3.356823,1.25819,-2.865901,-2.027343,2.027343
1.582543,1.935543,21.51922,3.608886,3.356823,1.328101,-2.816944,-1.957407,2.027343
1.592984,1.945984,21.52244,3.543904,3.286811,1.328101,-2.820424,-1.887474,2.097282
1.604955,1.957955,21.52598,3.453148,3.216805,1.25819,-2.630603,-1.677691,2.027343
1.616094,1.969094,21.52198,3.4049,3.216805,1.118372,-2.586644,-1.607768,2.027343
1.626434,1.979434,21.51678,3.4049,3.216805,1.118372,-2.543846,-1.537848,2.027343
1.638354,1.991354,21.52051,3.29486,3.146803,0.9785607,-2.502268,-1.46793,2.027343
1.648948,2.001948,21.51818,3.274861,3.146803,0.9086576,-2.461972,-1.398015,2.027343
1.66121,2.01421,21.51767,3.239002,3.146803,0.7688549,-2.326375,-1.25819,1.957407
1.672247,2.025247,21.50715,3.140212,3.076806,0.6290568,-2.253942,-1.118372,1.957407
1.684491,2.037491,21.51524,3.115316,3.076806,0.4892626,-2.253942,-1.118372,1.957407
1.696784,2.049784,21.51537,3.02698,3.006814,0.3494712,-2.229916,-1.18828,1.887474
1.708117,2.061117,21.51403,3.014089,3.006814,0.2096819,-2.193514,-1.118372,1.887474
1.71994,2.07294,21.51595,3.077597,3.076806,0.06989381,-2.289379,-1.18828,1.957407
1.730539,2.083539,21.51335,3.077597,3.076806,-0.06989381,-2.364858,-1.328101,1.957407
1.742509,2.095509,21.51946,3.083915,3.076806,-0.2096819,-2.326375,-1.25819,1.957407
1.753154,2.106154,21.51109,3.096514,3.076806,-0.3494712,-2.502268,-1.46793,2.027343
1.764658,2.117658,21.51577,3.174513,3.146803,-0.4193665,-2.502268,-1.46793,2.027343
1.776486,2.129486,21.51625,3.18446,3.146803,-0.4892626,-2.684812,-1.677691,2.097282
1.787403,2.140403,21.51083,3.26484,3.216805,-0.5591593,-2.820424,-1.887474,2.097282
1.798676,2.151676,21.51828,3.333829,3.286811,-0.5591593,-2.867612,-1.957407,2.097282
1.810134,2.163134,21.5092,3.346208,3.286811,-0.6290568,-2.966337,-2.167225,2.027343
1.822234,2.175234,21.51582,3.346208,3.286811,-0.6290568,-3.132104,-2.447027,1.957407
1.833461,2.186461,21.51882,3.483828,3.426839,-0.6290568,-3.132104,-2.447027,1.957407
1.84405,2.19705,21.52052,3.497062,3.426839,-0.6989553,-3.02423,-2.307119,1.957407
1.854652,2.207652,21.52238,3.443356,3.356823,-0.7688549,-3.24243,-2.58695,1.957407
1.866338,2.219338,21.51686,3.511631,3.426839,-0.7688549,-3.452467,-2.796863,2.027343
1.877219,2.230219,21.51618,3.565691,3.496861,-0.6989553,-3.452467,-2.796863,2.027343
1.888949,2.241949,21.53203,3.497062,3.426839,-0.6989553,-3.452467,-2.796863,2.027343
1.90007,2.25307,21.51364,3.497062,3.426839,-0.6989553,-3.550031,-2.866842,2.097282
1.910267,2.263267,21.51441,3.552716,3.496861,-0.6290568,-3.647655,-2.936826,2.167225
1.921217,2.274217,21.51434,3.471944,3.426839,-0.5591593,-3.70413,-3.006814,2.167225
1.933372,2.286372,21.503,3.452283,3.426839,-0.4193665,-3.647655,-2.936826,2.167225
1.944299,2.297299,21.52002,3.433218,3.426839,-0.2096819,-3.647655,-2.936826,2.167225
1.95469,2.30769,21.52081,3.426839,3.426839,0,-3.606683,-2.936826,2.097282
1.966937,2.319937,21.5194,3.438171,3.426839,0.2795763,-3.452467,-2.796863,2.027343
1.978155,2.331155,21.51481,3.402865,3.356823,0.5591593,-3.24243,-2.58695,1.957407
1.989266,2.342266,21.52076,3.527519,3.426839,0.8387555,-3.144619,-2.516986,1.887474
2.000983,2.353983,21.51401,3.582914,3.426839,1.048466,-3.186976,-2.516986,1.957407
2.012663,2.365663,21.51473,3.649484,3.426839,1.25819,-3.033952,-2.377071,1.887474
2.023372,2.376372,21.5146,3.635076,3.356823,1.398015,-2.979541,-2.307119,1.887474
2.034779,2.387779,21.51147,3.690858,3.356823,1.537848,-2.971295,-2.23717,1.957407
2.046939,2.399939,21.51251,3.7204,3.356823,1.607768,-2.971295,-2.23717,1.957407
2.059131,2.412131,21.51191,3.7204,3.356823,1.607768,-2.867612,-2.097282,1.957407
2.070294,2.423294,21.51449,3.690858,3.356823,1.537848,-2.767116,-1.957407,1.957407
2.082675,2.435675,21.51192,3.598404,3.286811,1.46793,-2.768888,-1.887474,2.027343
2.093745,2.446745,21.50929,3.453148,3.216805,1.25819,-2.768888,-1.887474,2.027343
2.105956,2.458956,21.50923,3.361755,3.216805,0.9785607,-2.623139,-1.747616,1.957407
2.118263,2.471263,21.50208,3.323912,3.216805,0.8387555,-2.718173,-1.887474,1.957407
2.129394,2.482394,21.50987,3.195899,3.146803,0.5591593,-2.768888,-1.887474,2.027343
2.141724,2.494724,21.50601,3.166072,3.146803,0.3494712,-2.630603,-1.677691,2.027343
2.153219,2.506219,21.51959,3.146803,3.146803,0,-2.675666,-1.747616,2.027343
2.1659,2.5189,21.50784,3.223603,3.216805,-0.2096819,-2.675666,-1.747616,2.027343
2.176185,2.529185,21.51073,3.243912,3.216805,-0.4193665,-2.630603,-1.677691,2.027343
2.188507,2.541507,21.50727,3.208815,3.146803,-0.6290568,-2.675666,-1.747616,2.027343
2.200657,2.553657,21.4935,3.239002,3.146803,-0.7688549,-2.675666,-1.747616,2.027343
2.212489,2.565489,21.49741,3.323912,3.216805,-0.8387555,-2.675666,-1.747616,2.027343
2.224049,2.577049,21.50465,3.342159,3.216805,-0.9086576,-2.684812,-1.677691,2.097282
2.235964,2.588964,21.5029,3.342159,3.216805,-0.9086576,-2.599875,-1.537848,2.097282
2.247971,2.600971,21.50106,3.40957,3.286811,-0.9086576,-2.684812,-1.677691,2.097282
2.259808,2.612808,21.50005,3.361755,3.216805,-0.9785607,-2.728975,-1.747616,2.097282
2.271857,2.624857,21.50519,3.342159,3.216805,-0.9086576,-2.543846,-1.537848,2.027343
2.283993,2.636993,21.49427,3.375156,3.286811,-0.7688549,-2.641761,-1.607768,2.097282
2.295535,2.648535,21.50285,3.428493,3.356823,-0.6989553,-2.774196,-1.817544,2.097282
2.307653,2.660653,21.49648,3.483828,3.426839,-0.6290568,-2.623139,-1.747616,1.957407
2.319069,2.672069,21.49941,3.541066,3.496861,-0.5591593,-2.768888,-1.887474,2.027343
2.33073,2.68373,21.49521,3.530755,3.496861,-0.4892626,-2.721778,-1.817544,2.027343
2.342567,2.695567,21.48975,3.59133,3.566888,-0.4193665,-2.768888,-1.887474,2.027343
2.353338,2.706338,21.50005,3.653582,3.63692,-0.3494712,-2.867612,-1.957407,2.097282
2.366914,2.719914,21.49836,3.59133,3.566888,-0.4193665,-2.728975,-1.747616,2.097282
2.379615,2.732615,21.4917,3.59133,3.566888,-0.4193665,-2.774196,-1.817544,2.097282
2.391414,2.744414,21.49273,3.541066,3.496861,-0.5591593,-2.865901,-2.027343,2.027343
2.40302,2.75602,21.49159,3.541066,3.496861,-0.5591593,-2.865901,-2.027343,2.027343
2.414828,2.767828,21.5001,3.552716,3.496861,-0.6290568,-2.768888,-1.887474,2.027343
2.427026,2.780026,21.49286,3.565691,3.496861,-0.6989553,-2.915713,-2.097282,2.027343
2.438498,2.791498,21.4808,3.579978,3.496861,-0.7688549,-2.971295,-2.23717,1.957407
2.449867,2.802867,21.48084,3.612423,3.496861,-0.9086576,-2.925791,-2.23717,1.887474
2.46132,2.81432,21.48527,3.649914,3.496861,-1.048466,-2.919076,-2.167225,1.957407
2.472135,2.825135,21.49349,3.71527,3.496861,-1.25819,-2.925791,-2.23717,1.887474
2.483815,2.836815,21.48131,3.69978,3.426839,-1.398015,-2.925791,-2.23717,1.887474
2.495036,2.848036,21.47867,3.754591,3.426839,-1.537848,-3.077845,-2.377071,1.957407
2.506416,2.859416,21.4751,3.754591,3.426839,-1.537848,-3.033952,-2.377071,1.887474
2.517261,2.870261,21.48218,3.782654,3.356823,-1.747616,-2.979541,-2.307119,1.887474
2.528696,2.881696,21.48679,3.753948,3.286811,-1.817544,-3.033952,-2.377071,1.887474
2.538353,2.891353,21.47971,3.753948,3.286811,-1.817544,-2.925791,-2.23717,1.887474
2.550263,2.903263,21.48608,3.753948,3.286811,-1.817544,-2.87274,-2.167225,1.887474
2.560363,2.913363,21.48319,3.720741,3.286811,-1.747616,-2.925791,-2.23717,1.887474
2.570731,2.923731,21.48655,3.692891,3.216805,-1.817544,-2.925791,-2.23717,1.887474
2.580624,2.933624,21.49202,3.659124,3.216805,-1.747616,-2.925791,-2.23717,1.887474
